# Time	(Ca elimination through PMCA Pump).Flux	(Ca influx through VGCC).Flux	(Ca influx through leak).Flux	(ER_Leak flux).Flux	(Serca).Flux	(CICR through RyR).Flux	(Diffusion from subspace to cytosol).Flux	(Diffusion from ER to JER).Flux	(CICR through IP3R).Flux	
0	5.85365e-14	-2.70955e-14	8.56321e-14	7.48909e-21	8.32714e-21	0	-2.70955e-14	7.12412e-22	1.54759e-22	
0.2	5.85346e-14	-2.70922e-14	8.56267e-14	7.48909e-21	8.32697e-21	0	-2.70922e-14	6.82933e-22	1.54759e-22	
0.4	5.85326e-14	-2.70888e-14	8.56214e-14	7.48909e-21	8.32679e-21	0	-2.70888e-14	6.82933e-22	1.54759e-22	
0.6	5.85307e-14	-2.70854e-14	8.56161e-14	7.48909e-21	8.32662e-21	0	-2.70854e-14	6.81295e-22	1.54759e-22	
0.8	5.85287e-14	-2.70821e-14	8.56108e-14	7.48909e-21	8.32644e-21	0	-2.70821e-14	6.8457e-22	1.54759e-22	
1	5.85268e-14	-2.70787e-14	8.56054e-14	7.48909e-21	8.32627e-21	0	-2.70787e-14	6.81295e-22	1.54759e-22	
1.2	5.85248e-14	-2.70753e-14	8.56001e-14	7.48909e-21	8.32609e-21	0	-2.70753e-14	6.8457e-22	1.54759e-22	
1.4	5.85228e-14	-2.7072e-14	8.55948e-14	7.48909e-21	8.32592e-21	0	-2.7072e-14	6.81295e-22	1.54759e-22	
1.6	5.85209e-14	-2.70686e-14	8.55895e-14	7.48909e-21	8.32574e-21	0	-2.70686e-14	6.81295e-22	1.54759e-22	
1.8	5.85189e-14	-2.70652e-14	8.55842e-14	7.48909e-21	8.32557e-21	0	-2.70652e-14	6.79657e-22	1.54759e-22	
2	5.8517e-14	-2.70619e-14	8.55789e-14	7.48909e-21	8.32539e-21	0	-2.70619e-14	6.81295e-22	1.54759e-22	
2.2	5.8515e-14	-2.70585e-14	8.55736e-14	7.48909e-21	8.32522e-21	0	-2.70585e-14	6.8457e-22	1.54759e-22	
2.4	5.85131e-14	-2.70552e-14	8.55682e-14	7.48909e-21	8.32504e-21	0	-2.70552e-14	6.79657e-22	1.54759e-22	
2.6	5.85111e-14	-2.70518e-14	8.55629e-14	7.48909e-21	8.32486e-21	0	-2.70518e-14	6.79657e-22	1.54759e-22	
2.8	5.85092e-14	-2.70484e-14	8.55576e-14	7.48909e-21	8.32469e-21	0	-2.70484e-14	6.79657e-22	1.54759e-22	
3	5.85072e-14	-2.70451e-14	8.55523e-14	7.48909e-21	8.32452e-21	0	-2.70451e-14	6.81295e-22	1.54759e-22	
3.2	5.85053e-14	-2.70417e-14	8.5547e-14	7.48909e-21	8.32434e-21	0	-2.70417e-14	6.82933e-22	1.54759e-22	
3.4	5.85033e-14	-2.70384e-14	8.55417e-14	7.48909e-21	8.32417e-21	0	-2.70384e-14	6.79657e-22	1.54759e-22	
3.6	5.85014e-14	-2.7035e-14	8.55364e-14	7.48909e-21	8.32399e-21	0	-2.7035e-14	6.78019e-22	1.54759e-22	
3.8	5.84994e-14	-2.70317e-14	8.55311e-14	7.48909e-21	8.32382e-21	0	-2.70317e-14	6.78019e-22	1.54759e-22	
4	5.84975e-14	-2.70283e-14	8.55258e-14	7.48909e-21	8.32364e-21	0	-2.70283e-14	6.78019e-22	1.54759e-22	
4.2	5.84955e-14	-2.7025e-14	8.55205e-14	7.48909e-21	8.32347e-21	0	-2.7025e-14	6.78019e-22	1.54759e-22	
4.4	5.84936e-14	-2.70216e-14	8.55152e-14	7.48909e-21	8.32329e-21	0	-2.70216e-14	6.78019e-22	1.54759e-22	
4.6	5.84916e-14	-2.70183e-14	8.55099e-14	7.48909e-21	8.32312e-21	0	-2.70183e-14	6.78019e-22	1.54759e-22	
4.8	5.84897e-14	-2.7015e-14	8.55046e-14	7.48909e-21	8.32294e-21	0	-2.7015e-14	6.78019e-22	1.54759e-22	
5	5.84877e-14	-2.70116e-14	8.54994e-14	7.48909e-21	8.32277e-21	0	-2.70116e-14	6.79657e-22	1.54759e-22	
5.2	5.84858e-14	-2.70083e-14	8.54941e-14	7.48909e-21	8.32259e-21	0	-2.70083e-14	6.79657e-22	1.54759e-22	
5.4	5.84838e-14	-2.70049e-14	8.54888e-14	7.48909e-21	8.32242e-21	0	-2.70049e-14	6.78019e-22	1.54759e-22	
5.6	5.84819e-14	-2.70016e-14	8.54835e-14	7.48909e-21	8.32224e-21	0	-2.70016e-14	6.78019e-22	1.54759e-22	
5.8	5.848e-14	-2.69983e-14	8.54782e-14	7.48909e-21	8.32207e-21	0	-2.69983e-14	6.78019e-22	1.54759e-22	
6	5.8478e-14	-2.69949e-14	8.54729e-14	7.48909e-21	8.32189e-21	0	-2.69949e-14	6.76382e-22	1.54759e-22	
6.2	5.84761e-14	-2.69916e-14	8.54676e-14	7.48909e-21	8.32172e-21	0	-2.69916e-14	6.78019e-22	1.54759e-22	
6.4	5.84741e-14	-2.69882e-14	8.54624e-14	7.48909e-21	8.32154e-21	0	-2.69882e-14	6.74744e-22	1.54759e-22	
6.6	5.84722e-14	-2.69849e-14	8.54571e-14	7.48909e-21	8.32137e-21	0	-2.69849e-14	6.76382e-22	1.54759e-22	
6.8	5.84702e-14	-2.69816e-14	8.54518e-14	7.48909e-21	8.3212e-21	0	-2.69816e-14	6.78019e-22	1.54759e-22	
7	5.84683e-14	-2.69782e-14	8.54465e-14	7.48909e-21	8.32102e-21	0	-2.69782e-14	6.78019e-22	1.54759e-22	
7.2	5.84663e-14	-2.69749e-14	8.54412e-14	7.48909e-21	8.32085e-21	0	-2.69749e-14	6.78019e-22	1.54759e-22	
7.4	5.84644e-14	-2.69716e-14	8.5436e-14	7.48909e-21	8.32067e-21	0	-2.69716e-14	6.78019e-22	1.54759e-22	
7.6	5.84624e-14	-2.69682e-14	8.54307e-14	7.48909e-21	8.3205e-21	0	-2.69682e-14	6.78019e-22	1.54759e-22	
7.8	5.84605e-14	-2.69649e-14	8.54254e-14	7.48909e-21	8.32032e-21	0	-2.69649e-14	6.74744e-22	1.54759e-22	
8	5.84586e-14	-2.69616e-14	8.54202e-14	7.48909e-21	8.32015e-21	0	-2.69616e-14	6.76382e-22	1.54759e-22	
8.2	5.84566e-14	-2.69583e-14	8.54149e-14	7.48909e-21	8.31997e-21	0	-2.69583e-14	6.76382e-22	1.54759e-22	
8.4	5.84547e-14	-2.69549e-14	8.54096e-14	7.48909e-21	8.3198e-21	0	-2.69549e-14	6.79657e-22	1.54759e-22	
8.6	5.84527e-14	-2.69516e-14	8.54043e-14	7.48909e-21	8.31963e-21	0	-2.69516e-14	6.82933e-22	1.54759e-22	
8.8	5.84508e-14	-2.69483e-14	8.53991e-14	7.48909e-21	8.31945e-21	0	-2.69483e-14	6.82933e-22	1.54759e-22	
9	5.84488e-14	-2.6945e-14	8.53938e-14	7.4891e-21	8.31928e-21	0	-2.6945e-14	6.79657e-22	1.54759e-22	
9.2	5.84469e-14	-2.69416e-14	8.53886e-14	7.4891e-21	8.3191e-21	0	-2.69416e-14	6.68193e-22	1.54759e-22	
9.4	5.8445e-14	-2.69383e-14	8.53833e-14	7.4891e-21	8.31893e-21	0	-2.69383e-14	6.61642e-22	1.54759e-22	
9.6	5.8443e-14	-2.6935e-14	8.5378e-14	7.4891e-21	8.31876e-21	0	-2.6935e-14	6.61642e-22	1.54759e-22	
9.8	5.84411e-14	-2.69317e-14	8.53728e-14	7.4891e-21	8.31858e-21	0	-2.69317e-14	6.73106e-22	1.54759e-22	
10	5.84391e-14	-2.69284e-14	8.53675e-14	7.4891e-21	8.31841e-21	0	-2.69284e-14	7.00948e-22	1.54759e-22	
10.2	5.84372e-14	-2.69251e-14	8.53623e-14	7.4891e-21	8.31823e-21	0	-2.69251e-14	7.30427e-22	1.54759e-22	
10.4	5.84353e-14	-2.69217e-14	8.5357e-14	7.4891e-21	8.31806e-21	0	-2.69217e-14	7.27151e-22	1.54759e-22	
10.6	5.84333e-14	-2.69184e-14	8.53518e-14	7.4891e-21	8.31788e-21	0	-2.69184e-14	6.94397e-22	1.54759e-22	
10.8	5.84314e-14	-2.69151e-14	8.53465e-14	7.4891e-21	8.31771e-21	0	-2.69151e-14	6.07597e-22	1.54759e-22	
11	5.84294e-14	-2.69118e-14	8.53413e-14	7.4891e-21	8.31754e-21	0	-2.69118e-14	5.10971e-22	1.54759e-22	
11.2	5.84275e-14	-2.69085e-14	8.5336e-14	7.4891e-21	8.31736e-21	0	-2.69085e-14	5.15884e-22	1.54759e-22	
11.4	5.84256e-14	-2.69052e-14	8.53308e-14	7.4891e-21	8.31719e-21	0	-2.69052e-14	6.14148e-22	1.54759e-22	
11.6	5.84236e-14	-2.69019e-14	8.53255e-14	7.4891e-21	8.31701e-21	0	-2.69019e-14	8.69634e-22	1.54759e-22	
11.8	5.84217e-14	-2.68986e-14	8.53203e-14	7.4891e-21	8.31684e-21	0	-2.68986e-14	1.16606e-21	1.54759e-22	
12	5.84198e-14	-2.68953e-14	8.5315e-14	7.4891e-21	8.31667e-21	0	-2.68953e-14	1.24304e-21	1.54759e-22	
12.2	5.84178e-14	-2.6892e-14	8.53098e-14	7.4891e-21	8.31649e-21	0	-2.6892e-14	1.27251e-21	1.54759e-22	
12.4	5.84159e-14	-2.68887e-14	8.53045e-14	7.4891e-21	8.31632e-21	0	-2.68887e-14	1.21847e-21	1.54759e-22	
12.6	5.84139e-14	-2.68854e-14	8.52993e-14	7.4891e-21	8.31615e-21	0	-2.68854e-14	1.05306e-21	1.54759e-22	
12.8	5.8412e-14	-2.68821e-14	8.52941e-14	7.4891e-21	8.31597e-21	0	-2.68821e-14	7.32064e-22	1.54759e-22	
13	5.84101e-14	-2.68788e-14	8.52888e-14	7.4891e-21	8.3158e-21	0	-2.68788e-14	5.24073e-22	1.54759e-22	
13.2	5.84081e-14	-2.68755e-14	8.52836e-14	7.4891e-21	8.31562e-21	0	-2.68755e-14	3.66851e-22	1.54759e-22	
13.4	5.84062e-14	-2.68722e-14	8.52784e-14	7.4891e-21	8.31545e-21	0	-2.68722e-14	2.65312e-22	1.54759e-22	
13.6	5.84043e-14	-2.68689e-14	8.52731e-14	7.4891e-21	8.31528e-21	0	-2.68689e-14	2.65312e-22	1.54759e-22	
13.8	5.84023e-14	-2.68656e-14	8.52679e-14	7.4891e-21	8.3151e-21	0	-2.68656e-14	4.30722e-22	1.54759e-22	
14	5.84004e-14	-2.68623e-14	8.52627e-14	7.4891e-21	8.31493e-21	0	-2.68623e-14	7.48442e-22	1.54759e-22	
14.2	5.83985e-14	-2.6859e-14	8.52574e-14	7.4891e-21	8.31476e-21	0	-2.6859e-14	1.03832e-21	1.54759e-22	
14.4	5.83965e-14	-2.68557e-14	8.52522e-14	7.4891e-21	8.31458e-21	0	-2.68557e-14	1.37569e-21	1.54759e-22	
14.6	5.83946e-14	-2.68524e-14	8.5247e-14	7.4891e-21	8.31441e-21	0	-2.68524e-14	1.71961e-21	1.54759e-22	
14.8	5.83927e-14	-2.68491e-14	8.52418e-14	7.4891e-21	8.31424e-21	0	-2.68491e-14	2.01277e-21	1.54759e-22	
15	5.83907e-14	-2.68458e-14	8.52365e-14	7.4891e-21	8.31406e-21	0	-2.68458e-14	2.19128e-21	1.54759e-22	
15.2	5.83888e-14	-2.68425e-14	8.52313e-14	7.4891e-21	8.31389e-21	0	-2.68425e-14	2.15525e-21	1.54759e-22	
15.4	5.83869e-14	-2.68392e-14	8.52261e-14	7.4891e-21	8.31372e-21	0	-2.68392e-14	1.78676e-21	1.54759e-22	
15.6	5.83849e-14	-2.68359e-14	8.52209e-14	7.4891e-21	8.31354e-21	0	-2.68359e-14	9.43331e-22	1.54759e-22	
15.8	5.8383e-14	-2.68327e-14	8.52157e-14	7.4891e-21	8.31337e-21	0	-2.68327e-14	-3.27546e-24	1.54759e-22	
16	5.83811e-14	-2.68294e-14	8.52104e-14	7.4891e-21	8.31319e-21	0	-2.68294e-14	-9.12215e-22	1.54759e-22	
16.2	5.83791e-14	-2.68261e-14	8.52052e-14	7.4891e-21	8.31302e-21	0	-2.68261e-14	-1.8015e-21	1.54759e-22	
16.4	5.83772e-14	-2.68228e-14	8.52e-14	7.4891e-21	8.31285e-21	0	-2.68228e-14	-2.49754e-21	1.54759e-22	
16.6	5.83753e-14	-2.68195e-14	8.51948e-14	7.4891e-21	8.31267e-21	0	-2.68195e-14	-2.87749e-21	1.54759e-22	
16.8	5.83733e-14	-2.68162e-14	8.51896e-14	7.4891e-21	8.3125e-21	0	-2.68162e-14	-2.89223e-21	1.54759e-22	
17	5.83714e-14	-2.6813e-14	8.51844e-14	7.4891e-21	8.31233e-21	0	-2.6813e-14	-2.21421e-21	1.54759e-22	
17.2	5.83695e-14	-2.68097e-14	8.51792e-14	7.4891e-21	8.31216e-21	0	-2.68097e-14	-5.69929e-22	1.54759e-22	
17.4	5.83676e-14	-2.68064e-14	8.5174e-14	7.4891e-21	8.31198e-21	0	-2.68064e-14	2.21421e-21	1.54759e-22	
17.6	5.83656e-14	-2.68031e-14	8.51688e-14	7.4891e-21	8.31181e-21	0	-2.68031e-14	4.51522e-21	1.54759e-22	
17.8	5.83637e-14	-2.67999e-14	8.51636e-14	7.4891e-21	8.31164e-21	0	-2.67999e-14	6.76218e-21	1.54759e-22	
18	5.83618e-14	-2.67966e-14	8.51583e-14	7.4891e-21	8.31146e-21	0	-2.67966e-14	8.4949e-21	1.54759e-22	
18.2	5.83598e-14	-2.67933e-14	8.51531e-14	7.4891e-21	8.31129e-21	0	-2.67933e-14	9.10577e-21	1.54759e-22	
18.4	5.83579e-14	-2.679e-14	8.51479e-14	7.4891e-21	8.31112e-21	0	-2.679e-14	8.98621e-21	1.54759e-22	
18.6	5.8356e-14	-2.67868e-14	8.51427e-14	7.4891e-21	8.31094e-21	0	-2.67868e-14	7.60888e-21	1.54759e-22	
18.8	5.83541e-14	-2.67835e-14	8.51376e-14	7.4891e-21	8.31077e-21	0	-2.67835e-14	4.28102e-21	1.54759e-22	
19	5.83521e-14	-2.67802e-14	8.51324e-14	7.4891e-21	8.3106e-21	0	-2.67802e-14	-1.56894e-21	1.54759e-22	
19.2	5.83502e-14	-2.6777e-14	8.51272e-14	7.4891e-21	8.31042e-21	0	-2.6777e-14	-8.59807e-21	1.54759e-22	
19.4	5.83483e-14	-2.67737e-14	8.5122e-14	7.4891e-21	8.31025e-21	0	-2.67737e-14	-1.43563e-20	1.54759e-22	
19.6	5.83464e-14	-2.67704e-14	8.51168e-14	7.4891e-21	8.31008e-21	0	-2.67704e-14	-1.89354e-20	1.54759e-22	
19.8	5.83444e-14	-2.67672e-14	8.51116e-14	7.4891e-21	8.30991e-21	0	-2.67672e-14	-2.07975e-20	1.54759e-22	
20	5.83425e-14	-2.67639e-14	8.51064e-14	7.4891e-21	8.30973e-21	0	-2.67639e-14	-1.8752e-20	1.54759e-22	
20.2	5.83406e-14	-2.67606e-14	8.51012e-14	7.4891e-21	8.30956e-21	0	-2.67606e-14	-1.55732e-20	1.54759e-22	
20.4	5.83387e-14	-2.67574e-14	8.5096e-14	7.4891e-21	8.30939e-21	0	-2.67574e-14	-8.39663e-21	1.54759e-22	
20.6	5.83367e-14	-2.67541e-14	8.50908e-14	7.4891e-21	8.30921e-21	0	-2.67541e-14	3.68161e-21	1.54759e-22	
20.8	5.83348e-14	-2.67508e-14	8.50856e-14	7.4891e-21	8.30904e-21	0	-2.67508e-14	2.15869e-20	1.54759e-22	
21	5.83329e-14	-2.67476e-14	8.50805e-14	7.4891e-21	8.30887e-21	0	-2.67476e-14	3.69733e-20	1.54759e-22	
21.2	5.8331e-14	-2.67443e-14	8.50753e-14	7.4891e-21	8.3087e-21	0	-2.67443e-14	4.9199e-20	1.54759e-22	
21.4	5.8329e-14	-2.67411e-14	8.50701e-14	7.4891e-21	8.30852e-21	0	-2.67411e-14	5.53077e-20	1.54759e-22	
21.6	5.83271e-14	-2.67378e-14	8.50649e-14	7.4891e-21	8.30835e-21	0	-2.67378e-14	5.0519e-20	1.54759e-22	
21.8	5.83252e-14	-2.67346e-14	8.50597e-14	7.4891e-21	8.30818e-21	0	-2.67346e-14	3.82475e-20	1.54759e-22	
22	5.83233e-14	-2.67313e-14	8.50546e-14	7.4891e-21	8.30801e-21	0	-2.67313e-14	2.15509e-20	1.54759e-22	
22.2	5.83213e-14	-2.67281e-14	8.50494e-14	7.4891e-21	8.30783e-21	0	-2.67281e-14	-4.82966e-21	1.54759e-22	
22.4	5.83194e-14	-2.67248e-14	8.50442e-14	7.4891e-21	8.30766e-21	0	-2.67248e-14	-4.17555e-20	1.54759e-22	
22.6	5.83175e-14	-2.67216e-14	8.50391e-14	7.4891e-21	8.30749e-21	0	-2.67216e-14	-6.37568e-20	1.54759e-22	
22.8	5.83156e-14	-2.67183e-14	8.50339e-14	7.4891e-21	8.30731e-21	0	-2.67183e-14	6.66555e-22	1.54759e-22	
23	5.83137e-14	-2.67151e-14	8.50287e-14	7.4891e-21	8.30714e-21	0	-2.67151e-14	6.61642e-22	1.54759e-22	
23.2	5.83117e-14	-2.67118e-14	8.50235e-14	7.4891e-21	8.30697e-21	0	-2.67118e-14	6.64918e-22	1.54759e-22	
23.4	5.83098e-14	-2.67086e-14	8.50184e-14	7.4891e-21	8.3068e-21	0	-2.67086e-14	6.6328e-22	1.54759e-22	
23.6	5.83079e-14	-2.67053e-14	8.50132e-14	7.4891e-21	8.30662e-21	0	-2.67053e-14	6.6328e-22	1.54759e-22	
23.8	5.8306e-14	-2.67021e-14	8.50081e-14	7.4891e-21	8.30645e-21	0	-2.67021e-14	6.64918e-22	1.54759e-22	
24	5.83041e-14	-2.66988e-14	8.50029e-14	7.4891e-21	8.30628e-21	0	-2.66988e-14	6.60004e-22	1.54759e-22	
24.2	5.83021e-14	-2.66956e-14	8.49977e-14	7.4891e-21	8.30611e-21	0	-2.66956e-14	6.6328e-22	1.54759e-22	
24.4	5.83002e-14	-2.66923e-14	8.49926e-14	7.4891e-21	8.30594e-21	0	-2.66923e-14	6.61642e-22	1.54759e-22	
24.6	5.82983e-14	-2.66891e-14	8.49874e-14	7.4891e-21	8.30576e-21	0	-2.66891e-14	6.61642e-22	1.54759e-22	
24.8	5.82964e-14	-2.66859e-14	8.49823e-14	7.4891e-21	8.30559e-21	0	-2.66859e-14	6.6328e-22	1.54759e-22	
25	5.82945e-14	-2.66826e-14	8.49771e-14	7.4891e-21	8.30542e-21	0	-2.66826e-14	6.61642e-22	1.54759e-22	
25.2	5.82925e-14	-2.66794e-14	8.49719e-14	7.4891e-21	8.30525e-21	0	-2.66794e-14	6.60004e-22	1.54759e-22	
25.4	5.82906e-14	-2.66762e-14	8.49668e-14	7.4891e-21	8.30507e-21	0	-2.66762e-14	6.61642e-22	1.54759e-22	
25.6	5.82887e-14	-2.66729e-14	8.49616e-14	7.48911e-21	8.3049e-21	0	-2.66729e-14	6.61642e-22	1.54759e-22	
25.8	5.82868e-14	-2.66697e-14	8.49565e-14	7.48911e-21	8.30473e-21	0	-2.66697e-14	6.6328e-22	1.54759e-22	
26	5.82849e-14	-2.66665e-14	8.49513e-14	7.48911e-21	8.30456e-21	0	-2.66665e-14	6.6328e-22	1.54759e-22	
26.2	5.8283e-14	-2.66632e-14	8.49462e-14	7.48911e-21	8.30439e-21	0	-2.66632e-14	6.61642e-22	1.54759e-22	
26.4	5.8281e-14	-2.666e-14	8.4941e-14	7.48911e-21	8.30421e-21	0	-2.666e-14	6.56729e-22	1.54759e-22	
26.6	5.82791e-14	-2.66568e-14	8.49359e-14	7.48911e-21	8.30404e-21	0	-2.66568e-14	6.56729e-22	1.54759e-22	
26.8	5.82772e-14	-2.66535e-14	8.49308e-14	7.48911e-21	8.30387e-21	0	-2.66535e-14	6.60004e-22	1.54759e-22	
27	5.82753e-14	-2.66503e-14	8.49256e-14	7.48911e-21	8.3037e-21	0	-2.66503e-14	6.6328e-22	1.54759e-22	
27.2	5.82734e-14	-2.66471e-14	8.49205e-14	7.48911e-21	8.30353e-21	0	-2.66471e-14	6.64918e-22	1.54759e-22	
27.4	5.82715e-14	-2.66439e-14	8.49153e-14	7.48911e-21	8.30335e-21	0	-2.66439e-14	6.6328e-22	1.54759e-22	
27.6	5.82696e-14	-2.66406e-14	8.49102e-14	7.48911e-21	8.30318e-21	0	-2.66406e-14	6.56729e-22	1.54759e-22	
27.8	5.82676e-14	-2.66374e-14	8.49051e-14	7.48911e-21	8.30301e-21	0	-2.66374e-14	6.53453e-22	1.54759e-22	
28	5.82657e-14	-2.66342e-14	8.48999e-14	7.48911e-21	8.30284e-21	0	-2.66342e-14	6.53453e-22	1.54759e-22	
28.2	5.82638e-14	-2.6631e-14	8.48948e-14	7.48911e-21	8.30267e-21	0	-2.6631e-14	6.58367e-22	1.54759e-22	
28.4	5.82619e-14	-2.66277e-14	8.48897e-14	7.48911e-21	8.30249e-21	0	-2.66277e-14	6.61642e-22	1.54759e-22	
28.6	5.826e-14	-2.66245e-14	8.48845e-14	7.48911e-21	8.30232e-21	0	-2.66245e-14	6.58367e-22	1.54759e-22	
28.8	5.82581e-14	-2.66213e-14	8.48794e-14	7.48911e-21	8.30215e-21	0	-2.66213e-14	6.46903e-22	1.54759e-22	
29	5.82562e-14	-2.66181e-14	8.48743e-14	7.48911e-21	8.30198e-21	0	-2.66181e-14	6.4854e-22	1.54759e-22	
29.2	5.82543e-14	-2.66149e-14	8.48691e-14	7.48911e-21	8.30181e-21	0	-2.66149e-14	6.60004e-22	1.54759e-22	
29.4	5.82524e-14	-2.66117e-14	8.4864e-14	7.48911e-21	8.30164e-21	0	-2.66117e-14	6.74744e-22	1.54759e-22	
29.6	5.82504e-14	-2.66084e-14	8.48589e-14	7.48911e-21	8.30146e-21	0	-2.66084e-14	6.69831e-22	1.54759e-22	
29.8	5.82485e-14	-2.66052e-14	8.48538e-14	7.48911e-21	8.30129e-21	0	-2.66052e-14	6.38714e-22	1.54759e-22	
30	5.82466e-14	-2.6602e-14	8.48486e-14	7.48911e-21	8.30112e-21	0	-2.6602e-14	6.32163e-22	1.54759e-22	
30.2	5.82447e-14	-2.65988e-14	8.48435e-14	7.48911e-21	8.30095e-21	0	-2.65988e-14	6.56729e-22	1.54759e-22	
30.4	5.82428e-14	-2.65956e-14	8.48384e-14	7.48911e-21	8.30078e-21	0	-2.65956e-14	6.97672e-22	1.54759e-22	
30.6	5.82409e-14	-2.65924e-14	8.48333e-14	7.48911e-21	8.30061e-21	0	-2.65924e-14	6.89484e-22	1.54759e-22	
30.8	5.8239e-14	-2.65892e-14	8.48282e-14	7.48911e-21	8.30043e-21	0	-2.65892e-14	6.19061e-22	1.54759e-22	
31	5.82371e-14	-2.6586e-14	8.4823e-14	7.48911e-21	8.30026e-21	0	-2.6586e-14	5.86307e-22	1.54759e-22	
31.2	5.82352e-14	-2.65828e-14	8.48179e-14	7.48911e-21	8.30009e-21	0	-2.65828e-14	6.35438e-22	1.54759e-22	
31.4	5.82333e-14	-2.65796e-14	8.48128e-14	7.48911e-21	8.29992e-21	0	-2.65796e-14	7.61544e-22	1.54759e-22	
31.6	5.82313e-14	-2.65764e-14	8.48077e-14	7.48911e-21	8.29975e-21	0	-2.65764e-14	7.53355e-22	1.54759e-22	
31.8	5.82294e-14	-2.65732e-14	8.48026e-14	7.48911e-21	8.29958e-21	0	-2.65732e-14	5.92858e-22	1.54759e-22	
32	5.82275e-14	-2.657e-14	8.47975e-14	7.48911e-21	8.29941e-21	0	-2.657e-14	4.60202e-22	1.54759e-22	
32.2	5.82256e-14	-2.65668e-14	8.47924e-14	7.48911e-21	8.29923e-21	0	-2.65668e-14	5.65016e-22	1.54759e-22	
32.4	5.82237e-14	-2.65636e-14	8.47873e-14	7.48911e-21	8.29906e-21	0	-2.65636e-14	9.31867e-22	1.54759e-22	
32.6	5.82218e-14	-2.65604e-14	8.47822e-14	7.48911e-21	8.29889e-21	0	-2.65604e-14	1.00557e-21	1.54759e-22	
32.8	5.82199e-14	-2.65572e-14	8.47771e-14	7.48911e-21	8.29872e-21	0	-2.65572e-14	6.87846e-22	1.54759e-22	
33	5.8218e-14	-2.6554e-14	8.4772e-14	7.48911e-21	8.29855e-21	0	-2.6554e-14	-1.93252e-22	1.54759e-22	
33.2	5.82161e-14	-2.65508e-14	8.47669e-14	7.48911e-21	8.29838e-21	0	-2.65508e-14	-2.89878e-22	1.54759e-22	
33.4	5.82142e-14	-2.65476e-14	8.47618e-14	7.48911e-21	8.29821e-21	0	-2.65476e-14	6.40352e-22	1.54759e-22	
33.6	5.82123e-14	-2.65444e-14	8.47567e-14	7.48911e-21	8.29804e-21	0	-2.65444e-14	2.82508e-21	1.54759e-22	
33.8	5.82104e-14	-2.65412e-14	8.47516e-14	7.48911e-21	8.29786e-21	0	-2.65412e-14	2.83982e-21	1.54759e-22	
34	5.82085e-14	-2.6538e-14	8.47465e-14	7.48911e-21	8.29769e-21	0	-2.6538e-14	1.65411e-22	1.54759e-22	
34.2	5.82066e-14	-2.65348e-14	8.47414e-14	7.48911e-21	8.29752e-21	0	-2.65348e-14	-5.18996e-21	1.54759e-22	
34.4	5.82047e-14	-2.65316e-14	8.47363e-14	7.48911e-21	8.29735e-21	0	-2.65316e-14	-5.24401e-21	1.54759e-22	
34.6	5.82028e-14	-2.65284e-14	8.47312e-14	7.48911e-21	8.29718e-21	0	-2.65284e-14	1.78349e-21	1.54759e-22	
34.8	5.82009e-14	-2.65252e-14	8.47261e-14	7.48911e-21	8.29701e-21	0	-2.65252e-14	1.46871e-20	1.54759e-22	
35	5.8199e-14	-2.65221e-14	8.4721e-14	7.48911e-21	8.29684e-21	0	-2.65221e-14	1.40648e-20	1.54759e-22	
35.2	5.81971e-14	-2.65189e-14	8.47159e-14	7.48911e-21	8.29667e-21	0	-2.65189e-14	-4.8182e-21	1.54759e-22	
35.4	5.81952e-14	-2.65157e-14	8.47108e-14	7.48911e-21	8.2965e-21	0	-2.65157e-14	-3.84129e-20	1.54759e-22	
35.6	5.81933e-14	-2.65125e-14	8.47058e-14	7.48911e-21	8.29632e-21	0	-2.65125e-14	-4.95396e-20	1.54759e-22	
35.8	5.81914e-14	-2.65093e-14	8.47007e-14	7.48911e-21	8.29615e-21	0	-2.65093e-14	-3.0429e-20	1.54759e-22	
36	5.81895e-14	-2.65061e-14	8.46956e-14	7.48911e-21	8.29598e-21	0	-2.65061e-14	1.30281e-20	1.54759e-22	
36.2	5.81876e-14	-2.6503e-14	8.46905e-14	7.48911e-21	8.29581e-21	0	-2.6503e-14	3.26104e-20	1.54759e-22	
36.4	5.81857e-14	-2.64998e-14	8.46854e-14	7.48911e-21	8.29564e-21	0	-2.64998e-14	2.35735e-20	1.54759e-22	
36.6	5.81838e-14	-2.64966e-14	8.46804e-14	7.48911e-21	8.29547e-21	0	-2.64966e-14	-6.23811e-21	1.54759e-22	
36.8	5.81819e-14	-2.64934e-14	8.46753e-14	7.48911e-21	8.2953e-21	0	-2.64934e-14	-1.70455e-20	1.54759e-22	
37	5.818e-14	-2.64903e-14	8.46702e-14	7.48911e-21	8.29513e-21	0	-2.64903e-14	-1.14051e-20	1.5476e-22	
37.2	5.81781e-14	-2.64871e-14	8.46651e-14	7.48911e-21	8.29496e-21	0	-2.64871e-14	3.08876e-21	1.5476e-22	
